# Matter power spectrum P(k) at redshift z=0
# for k=1.05311e-05 to 1.04889 h/Mpc,
# number of wavenumbers equal to 547
# k (h/Mpc)  P (Mpc/h)^3:
1.053105e-05 5.1289879237e+01
1.402230e-04 6.1850618663e+02
2.699178e-04 1.1598341822e+03
3.996155e-04 1.6884461182e+03
5.293161e-04 2.2072479102e+03
6.590199e-04 2.7167447201e+03
7.887267e-04 3.2182625997e+03
9.184366e-04 3.7114817538e+03
1.048150e-03 4.1968058288e+03
1.177866e-03 4.6743782506e+03
1.307586e-03 5.1443112237e+03
1.437309e-03 5.6066236626e+03
1.567036e-03 6.0613711927e+03
1.696767e-03 6.5086312952e+03
1.826500e-03 6.9484707973e+03
1.956238e-03 7.3809393072e+03
2.085980e-03 7.8061051041e+03
2.215725e-03 8.2240368933e+03
2.345474e-03 8.6348162899e+03
2.475227e-03 9.0385213823e+03
2.604985e-03 9.4352172778e+03
2.734746e-03 9.8249960703e+03
2.864512e-03 1.0207938094e+04
2.994282e-03 1.0584136233e+04
3.124057e-03 1.0953682265e+04
3.253836e-03 1.1316663018e+04
3.383620e-03 1.1673183847e+04
3.513409e-03 1.2023313985e+04
3.643202e-03 1.2367164222e+04
3.773000e-03 1.2704816683e+04
3.902803e-03 1.3036354865e+04
4.032612e-03 1.3361867082e+04
4.162425e-03 1.3681443983e+04
4.292244e-03 1.3995160561e+04
4.422069e-03 1.4303099072e+04
4.551899e-03 1.4605346619e+04
4.681734e-03 1.4901975805e+04
4.811575e-03 1.5193045894e+04
4.941423e-03 1.5478658948e+04
5.071276e-03 1.5758870834e+04
5.201135e-03 1.6033771345e+04
5.331001e-03 1.6303457719e+04
5.460873e-03 1.6567955700e+04
5.590751e-03 1.6827355416e+04
5.720636e-03 1.7081711531e+04
5.850528e-03 1.7331108110e+04
5.980427e-03 1.7575561570e+04
6.110333e-03 1.7815178166e+04
6.240246e-03 1.8050011129e+04
6.370166e-03 1.8280136447e+04
6.500094e-03 1.8505576732e+04
6.630030e-03 1.8726427269e+04
6.759973e-03 1.8942736706e+04
6.889925e-03 1.9154537113e+04
7.019884e-03 1.9361916661e+04
7.149852e-03 1.9564902709e+04
7.279828e-03 1.9763567372e+04
7.409813e-03 1.9957942438e+04
7.539806e-03 2.0148136261e+04
7.669809e-03 2.0334129101e+04
7.799821e-03 2.0516030081e+04
7.929842e-03 2.0693878371e+04
8.059872e-03 2.0867722409e+04
8.189913e-03 2.1037540253e+04
8.319963e-03 2.1203476143e+04
8.450023e-03 2.1365553355e+04
8.580094e-03 2.1523787143e+04
8.710175e-03 2.1678214784e+04
8.840267e-03 2.1828938340e+04
8.970370e-03 2.1976004451e+04
9.100485e-03 2.2119333577e+04
9.230610e-03 2.2259124468e+04
9.360748e-03 2.2395333508e+04
9.490897e-03 2.2528021064e+04
9.621058e-03 2.2657218364e+04
9.751232e-03 2.2782981132e+04
9.881419e-03 2.2905331982e+04
1.001162e-02 2.3024352777e+04
1.014183e-02 2.3140017582e+04
1.027206e-02 2.3252380561e+04
1.040230e-02 2.3361535365e+04
1.053255e-02 2.3467460945e+04
1.066282e-02 2.3570221170e+04
1.079310e-02 2.3669877391e+04
1.092340e-02 2.3766416801e+04
1.105371e-02 2.3859906288e+04
1.118404e-02 2.3950316492e+04
1.131438e-02 2.4037775166e+04
1.144474e-02 2.4122216294e+04
1.157512e-02 2.4203838964e+04
1.170551e-02 2.4282569624e+04
1.183592e-02 2.4358303499e+04
1.196635e-02 2.4431341812e+04
1.209680e-02 2.4501556502e+04
1.222726e-02 2.4568993694e+04
1.235774e-02 2.4633779770e+04
1.248824e-02 2.4695739308e+04
1.261876e-02 2.4755158689e+04
1.274930e-02 2.4811908087e+04
1.287987e-02 2.4866228790e+04
1.301045e-02 2.4917849443e+04
1.314105e-02 2.4966940077e+04
1.327167e-02 2.5013557106e+04
1.340232e-02 2.5057728472e+04
1.353299e-02 2.5099421993e+04
1.366368e-02 2.5138855080e+04
1.379439e-02 2.5175853672e+04
1.392513e-02 2.5210480664e+04
1.405589e-02 2.5242908327e+04
1.418668e-02 2.5273029220e+04
1.431749e-02 2.5300884482e+04
1.444832e-02 2.5326639290e+04
1.457919e-02 2.5350047322e+04
1.471008e-02 2.5371523259e+04
1.484099e-02 2.5390712442e+04
1.497194e-02 2.5407784695e+04
1.510291e-02 2.5423027783e+04
1.523392e-02 2.5436098330e+04
1.536495e-02 2.5447213052e+04
1.549601e-02 2.5456476618e+04
1.562711e-02 2.5463719405e+04
1.575823e-02 2.5469169019e+04
1.588939e-02 2.5472793375e+04
1.602058e-02 2.5474483860e+04
1.615180e-02 2.5474549724e+04
1.628306e-02 2.5472676037e+04
1.641436e-02 2.5469137119e+04
1.654568e-02 2.5463933153e+04
1.667705e-02 2.5457007440e+04
1.680845e-02 2.5448456802e+04
1.693989e-02 2.5438429023e+04
1.707137e-02 2.5426639162e+04
1.720289e-02 2.5413334904e+04
1.733445e-02 2.5398712524e+04
1.746605e-02 2.5382377217e+04
1.759769e-02 2.5364601635e+04
1.772937e-02 2.5345502759e+04
1.786110e-02 2.5324872143e+04
1.799288e-02 2.5302921761e+04
1.812470e-02 2.5279694992e+04
1.825656e-02 2.5255109142e+04
1.838847e-02 2.5229032178e+04
1.852044e-02 2.5202066563e+04
1.865245e-02 2.5173673225e+04
1.878451e-02 2.5144012885e+04
1.891662e-02 2.5113607057e+04
1.904879e-02 2.5081740749e+04
1.918101e-02 2.5048586015e+04
1.931329e-02 2.5014656983e+04
1.944562e-02 2.4979241837e+04
1.957801e-02 2.4943389109e+04
1.971045e-02 2.4906126467e+04
1.984296e-02 2.4867945768e+04
1.997553e-02 2.4828579991e+04
2.010816e-02 2.4788476727e+04
2.024085e-02 2.4747710034e+04
2.037361e-02 2.4705527983e+04
2.050644e-02 2.4662752463e+04
2.063933e-02 2.4619313713e+04
2.077230e-02 2.4574753465e+04
2.090533e-02 2.4529545506e+04
2.103843e-02 2.4483575644e+04
2.117161e-02 2.4436911969e+04
2.130487e-02 2.4389377766e+04
2.143820e-02 2.4341534938e+04
2.157161e-02 2.4292399724e+04
2.170510e-02 2.4242594732e+04
2.183867e-02 2.4192583161e+04
2.197233e-02 2.4141793715e+04
2.210607e-02 2.4090339198e+04
2.223990e-02 2.4039043768e+04
2.237381e-02 2.3986086977e+04
2.250782e-02 2.3932760776e+04
2.264193e-02 2.3879496745e+04
2.277612e-02 2.3825404005e+04
2.291042e-02 2.3770571980e+04
2.304481e-02 2.3715364300e+04
2.317930e-02 2.3660018463e+04
2.331390e-02 2.3604044223e+04
2.344861e-02 2.3547848699e+04
2.358342e-02 2.3490913678e+04
2.371834e-02 2.3433925475e+04
2.385338e-02 2.3376327426e+04
2.398853e-02 2.3318007763e+04
2.412380e-02 2.3259913327e+04
2.425918e-02 2.3201255546e+04
2.439470e-02 2.3142547647e+04
2.453033e-02 2.3083322510e+04
2.466610e-02 2.3023481915e+04
2.480200e-02 2.2963386058e+04
2.493803e-02 2.2903585124e+04
2.507420e-02 2.2843523660e+04
2.521051e-02 2.2782498917e+04
2.534696e-02 2.2721476881e+04
2.548356e-02 2.2660593652e+04
2.562031e-02 2.2599072860e+04
2.575722e-02 2.2537704606e+04
2.589428e-02 2.2475885080e+04
2.603150e-02 2.2413929595e+04
2.616888e-02 2.2351633264e+04
2.630643e-02 2.2289384776e+04
2.644415e-02 2.2226928877e+04
2.658205e-02 2.2164271547e+04
2.672013e-02 2.2101196002e+04
2.685839e-02 2.2038233579e+04
2.699683e-02 2.1975006580e+04
2.713547e-02 2.1911669118e+04
2.727431e-02 2.1848144751e+04
2.741334e-02 2.1784463645e+04
2.755258e-02 2.1720931041e+04
2.769203e-02 2.1656539414e+04
2.783170e-02 2.1593063926e+04
2.797158e-02 2.1528605920e+04
2.811169e-02 2.1464192863e+04
2.825203e-02 2.1399822447e+04
2.839261e-02 2.1335288670e+04
2.853342e-02 2.1270910495e+04
2.867448e-02 2.1205839864e+04
2.881580e-02 2.1141052302e+04
2.895737e-02 2.1076000079e+04
2.909921e-02 2.1010576548e+04
2.924132e-02 2.0945437773e+04
2.938371e-02 2.0879866556e+04
2.952638e-02 2.0814471676e+04
2.966934e-02 2.0749049403e+04
2.981260e-02 2.0683172498e+04
2.995616e-02 2.0617385219e+04
3.010004e-02 2.0551761144e+04
3.024424e-02 2.0484992254e+04
3.038876e-02 2.0419037314e+04
3.053363e-02 2.0352515800e+04
3.067883e-02 2.0285852759e+04
3.082439e-02 2.0219461765e+04
3.097031e-02 2.0152629075e+04
3.111661e-02 2.0085080302e+04
3.126328e-02 2.0018589752e+04
3.141034e-02 1.9951263654e+04
3.155780e-02 1.9884001355e+04
3.170568e-02 1.9816105221e+04
3.185397e-02 1.9748834846e+04
3.200269e-02 1.9680518843e+04
3.215186e-02 1.9613314024e+04
3.230148e-02 1.9544696000e+04
3.245157e-02 1.9476587292e+04
3.260213e-02 1.9407315808e+04
3.275319e-02 1.9339108492e+04
3.290475e-02 1.9269643769e+04
3.305683e-02 1.9200431580e+04
3.320944e-02 1.9131339902e+04
3.336259e-02 1.9062173860e+04
3.351630e-02 1.8991941204e+04
3.367059e-02 1.8921838170e+04
3.382547e-02 1.8851731592e+04
3.398096e-02 1.8780921431e+04
3.413708e-02 1.8710021707e+04
3.429383e-02 1.8639362797e+04
3.445125e-02 1.8567958616e+04
3.460934e-02 1.8495686035e+04
3.476814e-02 1.8424474707e+04
3.492765e-02 1.8351955045e+04
3.508790e-02 1.8279921417e+04
3.524892e-02 1.8207189306e+04
3.541071e-02 1.8134362372e+04
3.557332e-02 1.8061436640e+04
3.573675e-02 1.7987476709e+04
3.590105e-02 1.7913605183e+04
3.606622e-02 1.7839337923e+04
3.623230e-02 1.7764792415e+04
3.639932e-02 1.7689799343e+04
3.656731e-02 1.7614655313e+04
3.673630e-02 1.7539027069e+04
3.690631e-02 1.7463014943e+04
3.707738e-02 1.7386832650e+04
3.724955e-02 1.7309774744e+04
3.742286e-02 1.7233112846e+04
3.759733e-02 1.7155087564e+04
3.777301e-02 1.7077593272e+04
3.794994e-02 1.6998718237e+04
3.812816e-02 1.6920034177e+04
3.830771e-02 1.6841365325e+04
3.848865e-02 1.6761633143e+04
3.867102e-02 1.6681331081e+04
3.885487e-02 1.6600999603e+04
3.904026e-02 1.6519785992e+04
3.922723e-02 1.6438352916e+04
3.941586e-02 1.6356854820e+04
3.960620e-02 1.6274512479e+04
3.979832e-02 1.6191588242e+04
3.999228e-02 1.6108776054e+04
4.018815e-02 1.6024460133e+04
4.038602e-02 1.5939878271e+04
4.058596e-02 1.5855688462e+04
4.078805e-02 1.5770145452e+04
4.099239e-02 1.5683794943e+04
4.119906e-02 1.5597791263e+04
4.140817e-02 1.5511283992e+04
4.161982e-02 1.5423650952e+04
4.183413e-02 1.5335749053e+04
4.205120e-02 1.5246974077e+04
4.227117e-02 1.5157986018e+04
4.249417e-02 1.5068464248e+04
4.272035e-02 1.4978430683e+04
4.294984e-02 1.4887929209e+04
4.318282e-02 1.4796381440e+04
4.341946e-02 1.4704955055e+04
4.365994e-02 1.4612591334e+04
4.390446e-02 1.4519812689e+04
4.415323e-02 1.4426425209e+04
4.440648e-02 1.4332723958e+04
4.466447e-02 1.4238037982e+04
4.492745e-02 1.4143511759e+04
4.519571e-02 1.4047974098e+04
4.546956e-02 1.3953701193e+04
4.574934e-02 1.3856238639e+04
4.603542e-02 1.3759761996e+04
4.632820e-02 1.3662855767e+04
4.662811e-02 1.3565746889e+04
4.693563e-02 1.3468514275e+04
4.725129e-02 1.3370892081e+04
4.757566e-02 1.3273037493e+04
4.790938e-02 1.3174755073e+04
4.825314e-02 1.3076620796e+04
4.860774e-02 1.2978988297e+04
4.897403e-02 1.2881507384e+04
4.935300e-02 1.2783758175e+04
4.974572e-02 1.2686689968e+04
5.015342e-02 1.2590267734e+04
5.057747e-02 1.2494856086e+04
5.101945e-02 1.2399886587e+04
5.148113e-02 1.2307130481e+04
5.196456e-02 1.2215122713e+04
5.247207e-02 1.2125383119e+04
5.300638e-02 1.2037174753e+04
5.357062e-02 1.1951734382e+04
5.416847e-02 1.1868966414e+04
5.480423e-02 1.1789106509e+04
5.548297e-02 1.1712756478e+04
5.621071e-02 1.1640060978e+04
5.699460e-02 1.1570227106e+04
5.784321e-02 1.1503524547e+04
5.876676e-02 1.1438480707e+04
5.977750e-02 1.1372385695e+04
6.089001e-02 1.1301780914e+04
6.212142e-02 1.1219977304e+04
6.349150e-02 1.1116630239e+04
6.502211e-02 1.0977101765e+04
6.673588e-02 1.0782178439e+04
6.865353e-02 1.0510103973e+04
7.078966e-02 1.0143668504e+04
7.314780e-02 9.6813517856e+03
7.571678e-02 9.1483511772e+03
7.847085e-02 8.5972707054e+03
8.137471e-02 8.0888199914e+03
8.439091e-02 7.6610676583e+03
8.748613e-02 7.3093265468e+03
9.063430e-02 6.9925633871e+03
9.381670e-02 6.6610669376e+03
9.702074e-02 6.2863053572e+03
1.002382e-01 5.8756616644e+03
1.034640e-01 5.4673459433e+03
1.066949e-01 5.1130742370e+03
1.099288e-01 4.8542927683e+03
1.131647e-01 4.7054338221e+03
1.164017e-01 4.6471384509e+03
1.196394e-01 4.6332176945e+03
1.228775e-01 4.6082607931e+03
1.261159e-01 4.5284918928e+03
1.293544e-01 4.3781412232e+03
1.325930e-01 4.1733086748e+03
1.358317e-01 3.9505467434e+03
1.390704e-01 3.7483062286e+03
1.423091e-01 3.5882743025e+03
1.455479e-01 3.4688440853e+03
1.487866e-01 3.3692766882e+03
1.520254e-01 3.2637936271e+03
1.552641e-01 3.1349010160e+03
1.585029e-01 2.9810957359e+03
1.617417e-01 2.8162669700e+03
1.649804e-01 2.6620030883e+03
1.682192e-01 2.5380369034e+03
1.714579e-01 2.4546742590e+03
1.746967e-01 2.4091168805e+03
1.779355e-01 2.3874670839e+03
1.811742e-01 2.3710110836e+03
1.844130e-01 2.3430447973e+03
1.876518e-01 2.2954343196e+03
1.908905e-01 2.2289776999e+03
1.941293e-01 2.1527532223e+03
1.973680e-01 2.0783519309e+03
2.006068e-01 2.0139239883e+03
2.038456e-01 1.9612280487e+03
2.070843e-01 1.9156676380e+03
2.103231e-01 1.8696291778e+03
2.135619e-01 1.8165829009e+03
2.168006e-01 1.7545102648e+03
2.200394e-01 1.6860006809e+03
2.232782e-01 1.6174024104e+03
2.265169e-01 1.5555025553e+03
2.297557e-01 1.5049894519e+03
2.329944e-01 1.4670081660e+03
2.362332e-01 1.4391424772e+03
2.394720e-01 1.4167566476e+03
2.427107e-01 1.3951558208e+03
2.459495e-01 1.3708870380e+03
2.491883e-01 1.3430068999e+03
2.524270e-01 1.3126790105e+03
2.556658e-01 1.2821431062e+03
2.589046e-01 1.2533736434e+03
2.621433e-01 1.2272012599e+03
2.653821e-01 1.2030045198e+03
2.686208e-01 1.1790786458e+03
2.718596e-01 1.1536615034e+03
2.750984e-01 1.1257936080e+03
2.783371e-01 1.0956779729e+03
2.815759e-01 1.0645635241e+03
2.848147e-01 1.0342126789e+03
2.880534e-01 1.0061466042e+03
2.912922e-01 9.8127049935e+02
2.945310e-01 9.5961467832e+02
2.977697e-01 9.4051962913e+02
3.010085e-01 9.2300314039e+02
3.042472e-01 9.0618601181e+02
3.074860e-01 8.8955406778e+02
3.107248e-01 8.7301126988e+02
3.139635e-01 8.5678416093e+02
3.172023e-01 8.4106708073e+02
3.204411e-01 8.2604204473e+02
3.236798e-01 8.1160472515e+02
3.269186e-01 7.9741479182e+02
3.301574e-01 7.8315079384e+02
3.333961e-01 7.6854142516e+02
3.366349e-01 7.5344575240e+02
3.398736e-01 7.3803812158e+02
3.431124e-01 7.2259218511e+02
3.463512e-01 7.0742260395e+02
3.495899e-01 6.9281278970e+02
3.528287e-01 6.7892064489e+02
3.560675e-01 6.6576919901e+02
3.593062e-01 6.5331435228e+02
3.625450e-01 6.4143340543e+02
3.657838e-01 6.3004912093e+02
3.690225e-01 6.1911946184e+02
3.722613e-01 6.0856956718e+02
3.755000e-01 5.9842272284e+02
3.787388e-01 5.8864189692e+02
3.819776e-01 5.7919508290e+02
3.852163e-01 5.7001414562e+02
3.884551e-01 5.6100191728e+02
3.916939e-01 5.5209936538e+02
3.949326e-01 5.4322827397e+02
3.981714e-01 5.3435112170e+02
4.014102e-01 5.2547623781e+02
4.046489e-01 5.1662559017e+02
4.078877e-01 5.0785163800e+02
4.111264e-01 4.9920796605e+02
4.143652e-01 4.9076351075e+02
4.176040e-01 4.8253096767e+02
4.208427e-01 4.7454553495e+02
4.240815e-01 4.6679584652e+02
4.273203e-01 4.5930831266e+02
4.305590e-01 4.5206141536e+02
4.337978e-01 4.4506557293e+02
4.370366e-01 4.3829989089e+02
4.402753e-01 4.3175796815e+02
4.435141e-01 4.2542562666e+02
4.467528e-01 4.1926406191e+02
4.499916e-01 4.1323275255e+02
4.532304e-01 4.0730064512e+02
4.564691e-01 4.0144620859e+02
4.597079e-01 3.9564952660e+02
4.629467e-01 3.8991156588e+02
4.661854e-01 3.8423584598e+02
4.694242e-01 3.7862360249e+02
4.726630e-01 3.7308913638e+02
4.759017e-01 3.6765213000e+02
4.791405e-01 3.6230471370e+02
4.823792e-01 3.5706028755e+02
4.856180e-01 3.5192482445e+02
4.888568e-01 3.4690012819e+02
4.920955e-01 3.4200934494e+02
4.953343e-01 3.3724542685e+02
4.985731e-01 3.3259997602e+02
5.018118e-01 3.2807970257e+02
5.050506e-01 3.2366008127e+02
5.082894e-01 3.1933406972e+02
5.115281e-01 3.1509776844e+02
5.147669e-01 3.1094582707e+02
5.180056e-01 3.0686805584e+02
5.212444e-01 3.0285685746e+02
5.244832e-01 2.9892521733e+02
5.277219e-01 2.9504807724e+02
5.309607e-01 2.9122434314e+02
5.341995e-01 2.8745487752e+02
5.374382e-01 2.8373501381e+02
5.406770e-01 2.8006890143e+02
5.439158e-01 2.7646414580e+02
5.471545e-01 2.7291807193e+02
5.503933e-01 2.6943937778e+02
5.536320e-01 2.6602359142e+02
5.568708e-01 2.6267499076e+02
5.601096e-01 2.5938149874e+02
5.633483e-01 2.5616274805e+02
5.665871e-01 2.5299984645e+02
5.698259e-01 2.4990709309e+02
5.730646e-01 2.4686844140e+02
5.763034e-01 2.4389546863e+02
5.795422e-01 2.4097065373e+02
5.827809e-01 2.3809987829e+02
5.860197e-01 2.3527011274e+02
5.892584e-01 2.3248414764e+02
5.924972e-01 2.2973589571e+02
5.957360e-01 2.2703186057e+02
5.989747e-01 2.2437398833e+02
6.022135e-01 2.2175245633e+02
6.054523e-01 2.1916815824e+02
6.086910e-01 2.1662968933e+02
6.119298e-01 2.1412490530e+02
6.151686e-01 2.1165750916e+02
6.184073e-01 2.0922822315e+02
6.216461e-01 2.0684196081e+02
6.248848e-01 2.0449572099e+02
6.281236e-01 2.0219024010e+02
6.313624e-01 1.9992338294e+02
6.346011e-01 1.9769358013e+02
6.378399e-01 1.9549887099e+02
6.410787e-01 1.9333708102e+02
6.443174e-01 1.9121021738e+02
6.475562e-01 1.8911790504e+02
6.507950e-01 1.8705813371e+02
6.540337e-01 1.8503135278e+02
6.572725e-01 1.8303397586e+02
6.605112e-01 1.8106089879e+02
6.637500e-01 1.7912352760e+02
6.669888e-01 1.7720963666e+02
6.702275e-01 1.7532250292e+02
6.734663e-01 1.7346343455e+02
6.767051e-01 1.7163176977e+02
6.799438e-01 1.6982805795e+02
6.831826e-01 1.6805074845e+02
6.864214e-01 1.6629869916e+02
6.896601e-01 1.6456966057e+02
6.928989e-01 1.6286574007e+02
6.961376e-01 1.6118559127e+02
7.463388e-01 1.3803889688e+02
8.118120e-01 1.1427596368e+02
9.044390e-01 8.9418892761e+01
1.048887e+00 6.3604527339e+01
