# Matter power spectrum P(k) at redshift z=0
# for k=1.05311e-05 to 1.04889 h/Mpc,
# number of wavenumbers equal to 547
# k (h/Mpc)  P (Mpc/h)^3:
1.053105e-05 5.1289879237e+01
1.402230e-04 6.1850618663e+02
2.699178e-04 1.1598341822e+03
3.996155e-04 1.6884454595e+03
5.293161e-04 2.2070582884e+03
6.590199e-04 2.7174362016e+03
7.887267e-04 3.2182004340e+03
9.184366e-04 3.7113444351e+03
1.048150e-03 4.1966040086e+03
1.177866e-03 4.6740950302e+03
1.307586e-03 5.1439280570e+03
1.437309e-03 5.6061204826e+03
1.567036e-03 6.0607265224e+03
1.696767e-03 6.5078223601e+03
1.826500e-03 6.9474736431e+03
1.956238e-03 7.3797289215e+03
2.085980e-03 7.8046555358e+03
2.215725e-03 8.2223213629e+03
2.345474e-03 8.6328072952e+03
2.475227e-03 9.0361908340e+03
2.604985e-03 9.4325366248e+03
2.734746e-03 9.8219364134e+03
2.864512e-03 1.0204470308e+04
2.994282e-03 1.0580231081e+04
3.124057e-03 1.0949310518e+04
3.253836e-03 1.1311795541e+04
3.383620e-03 1.1667791706e+04
3.513409e-03 1.2017368579e+04
3.643202e-03 1.2360637391e+04
3.773000e-03 1.2697680819e+04
3.902803e-03 1.3028583020e+04
4.032612e-03 1.3353433074e+04
4.162425e-03 1.3672322473e+04
4.292244e-03 1.3985327124e+04
4.422069e-03 1.4292530326e+04
4.551899e-03 1.4594020275e+04
4.681734e-03 1.4889870814e+04
4.811575e-03 1.5180142528e+04
4.941423e-03 1.5464938849e+04
5.071276e-03 1.5744317124e+04
5.201135e-03 1.6018368650e+04
5.331001e-03 1.6287192214e+04
5.460873e-03 1.6550815236e+04
5.590751e-03 1.6809329537e+04
5.720636e-03 1.7062791593e+04
5.850528e-03 1.7311287294e+04
5.980427e-03 1.7554835026e+04
6.110333e-03 1.7793542888e+04
6.240246e-03 1.8027466154e+04
6.370166e-03 1.8256682670e+04
6.500094e-03 1.8481217214e+04
6.630030e-03 1.8701167033e+04
6.759973e-03 1.8916582892e+04
6.889925e-03 1.9127499026e+04
7.019884e-03 1.9334005695e+04
7.149852e-03 1.9536132447e+04
7.279828e-03 1.9733953510e+04
7.409813e-03 1.9927502810e+04
7.539806e-03 2.0116890727e+04
7.669809e-03 2.0302099776e+04
7.799821e-03 2.0483241123e+04
7.929842e-03 2.0660356077e+04
8.059872e-03 2.0833495177e+04
8.189913e-03 2.1002638675e+04
8.319963e-03 2.1167932680e+04
8.450023e-03 2.1329402485e+04
8.580094e-03 2.1487065324e+04
8.710175e-03 2.1640960452e+04
8.840267e-03 2.1791191793e+04
8.970370e-03 2.1937807803e+04
9.100485e-03 2.2080730862e+04
9.230610e-03 2.2220161308e+04
9.360748e-03 2.2356057362e+04
9.490897e-03 2.2488480832e+04
9.621058e-03 2.2617464700e+04
9.751232e-03 2.2743066080e+04
9.881419e-03 2.2865309028e+04
1.001162e-02 2.2984276782e+04
1.014183e-02 2.3099944682e+04
1.027206e-02 2.3212368211e+04
1.040230e-02 2.3321641903e+04
1.053255e-02 2.3427745998e+04
1.066282e-02 2.3530745184e+04
1.079310e-02 2.3630701365e+04
1.092340e-02 2.3727603816e+04
1.105371e-02 2.3821518414e+04
1.118404e-02 2.3912417462e+04
1.131438e-02 2.4000428917e+04
1.144474e-02 2.4085487364e+04
1.157512e-02 2.4167791927e+04
1.170551e-02 2.4247269486e+04
1.183592e-02 2.4323815565e+04
1.196635e-02 2.4397731066e+04
1.209680e-02 2.4468888123e+04
1.222726e-02 2.4537332631e+04
1.235774e-02 2.4603190595e+04
1.248824e-02 2.4666286582e+04
1.261876e-02 2.4726906161e+04
1.274930e-02 2.4784919076e+04
1.287987e-02 2.4840565803e+04
1.301045e-02 2.4893574623e+04
1.314105e-02 2.4944114533e+04
1.327167e-02 2.4992240935e+04
1.340232e-02 2.5037980699e+04
1.353299e-02 2.5081300638e+04
1.366368e-02 2.5122416859e+04
1.379439e-02 2.5161154096e+04
1.392513e-02 2.5197573776e+04
1.405589e-02 2.5231846585e+04
1.418668e-02 2.5263863543e+04
1.431749e-02 2.5293664121e+04
1.444832e-02 2.5321411765e+04
1.457919e-02 2.5346858400e+04
1.471008e-02 2.5370416710e+04
1.484099e-02 2.5391730090e+04
1.497194e-02 2.5410966221e+04
1.510291e-02 2.5428410896e+04
1.523392e-02 2.5443718487e+04
1.536495e-02 2.5457102621e+04
1.549601e-02 2.5468667296e+04
1.562711e-02 2.5478239316e+04
1.575823e-02 2.5486044070e+04
1.588939e-02 2.5492047057e+04
1.602058e-02 2.5496136972e+04
1.615180e-02 2.5498620704e+04
1.628306e-02 2.5499180362e+04
1.641436e-02 2.5498087801e+04
1.654568e-02 2.5495340460e+04
1.667705e-02 2.5490878772e+04
1.680845e-02 2.5484796843e+04
1.693989e-02 2.5477239822e+04
1.707137e-02 2.5467919449e+04
1.720289e-02 2.5457080868e+04
1.733445e-02 2.5444917787e+04
1.746605e-02 2.5431031757e+04
1.759769e-02 2.5415692956e+04
1.772937e-02 2.5399015658e+04
1.786110e-02 2.5380788022e+04
1.799288e-02 2.5361219513e+04
1.812470e-02 2.5340350679e+04
1.825656e-02 2.5318095666e+04
1.838847e-02 2.5294319054e+04
1.852044e-02 2.5269621902e+04
1.865245e-02 2.5243460850e+04
1.878451e-02 2.5215994142e+04
1.891662e-02 2.5187741969e+04
1.904879e-02 2.5157984464e+04
1.918101e-02 2.5126891375e+04
1.931329e-02 2.5094975673e+04
1.944562e-02 2.5061520382e+04
1.957801e-02 2.5027574754e+04
1.971045e-02 2.4992160645e+04
1.984296e-02 2.4955769014e+04
1.997553e-02 2.4918129428e+04
2.010816e-02 2.4879688595e+04
2.024085e-02 2.4840518385e+04
2.037361e-02 2.4799861552e+04
2.050644e-02 2.4758540829e+04
2.063933e-02 2.4716484132e+04
2.077230e-02 2.4673229304e+04
2.090533e-02 2.4629249786e+04
2.103843e-02 2.4584428838e+04
2.117161e-02 2.4538832921e+04
2.130487e-02 2.4492282871e+04
2.143820e-02 2.4445341237e+04
2.157161e-02 2.4397018317e+04
2.170510e-02 2.4347937616e+04
2.183867e-02 2.4298562969e+04
2.197233e-02 2.4248319316e+04
2.210607e-02 2.4197318561e+04
2.223990e-02 2.4146387223e+04
2.237381e-02 2.4093695610e+04
2.250782e-02 2.4040540579e+04
2.264193e-02 2.3987354670e+04
2.277612e-02 2.3933242045e+04
2.291042e-02 2.3878291899e+04
2.304481e-02 2.3822868937e+04
2.317930e-02 2.3767211197e+04
2.331390e-02 2.3710825750e+04
2.344861e-02 2.3654121267e+04
2.358342e-02 2.3596577073e+04
2.371834e-02 2.3538882436e+04
2.385338e-02 2.3480478165e+04
2.398853e-02 2.3421252199e+04
2.412380e-02 2.3362155814e+04
2.425918e-02 2.3302397247e+04
2.439470e-02 2.3242492420e+04
2.453033e-02 2.3181972744e+04
2.466610e-02 2.3120740292e+04
2.480200e-02 2.3059157563e+04
2.493803e-02 2.2997777839e+04
2.507420e-02 2.2936044339e+04
2.521051e-02 2.2873252610e+04
2.534696e-02 2.2810373705e+04
2.548356e-02 2.2747545470e+04
2.562031e-02 2.2683989925e+04
2.575722e-02 2.2620501728e+04
2.589428e-02 2.2556476393e+04
2.603150e-02 2.2492231982e+04
2.616888e-02 2.2427564675e+04
2.630643e-02 2.2362866494e+04
2.644415e-02 2.2297883255e+04
2.658205e-02 2.2232622913e+04
2.672013e-02 2.2166870187e+04
2.685839e-02 2.2101160274e+04
2.699683e-02 2.2035116785e+04
2.713547e-02 2.1968896692e+04
2.727431e-02 2.1902425715e+04
2.741334e-02 2.1835736634e+04
2.755258e-02 2.1769138032e+04
2.769203e-02 2.1701622959e+04
2.783170e-02 2.1634973158e+04
2.797158e-02 2.1567288994e+04
2.811169e-02 2.1499602883e+04
2.825203e-02 2.1431915372e+04
2.839261e-02 2.1364023118e+04
2.853342e-02 2.1296248668e+04
2.867448e-02 2.1227746171e+04
2.881580e-02 2.1159495532e+04
2.895737e-02 2.1090951751e+04
2.909921e-02 2.1022011545e+04
2.924132e-02 2.0953334706e+04
2.938371e-02 2.0884207032e+04
2.952638e-02 2.0815240972e+04
2.966934e-02 2.0746236201e+04
2.981260e-02 2.0676769149e+04
2.995616e-02 2.0607387563e+04
3.010004e-02 2.0538168506e+04
3.024424e-02 2.0467808543e+04
3.038876e-02 2.0398268692e+04
3.053363e-02 2.0328173259e+04
3.067883e-02 2.0257950670e+04
3.082439e-02 2.0188017578e+04
3.097031e-02 2.0117665061e+04
3.111661e-02 2.0046623187e+04
3.126328e-02 1.9976666622e+04
3.141034e-02 1.9905909000e+04
3.155780e-02 1.9835251622e+04
3.170568e-02 1.9764002361e+04
3.185397e-02 1.9693421370e+04
3.200269e-02 1.9621845633e+04
3.215186e-02 1.9551429398e+04
3.230148e-02 1.9479659780e+04
3.245157e-02 1.9408456994e+04
3.260213e-02 1.9336158486e+04
3.275319e-02 1.9264986901e+04
3.290475e-02 1.9192633046e+04
3.305683e-02 1.9120604807e+04
3.320944e-02 1.9048774196e+04
3.336259e-02 1.8976950717e+04
3.351630e-02 1.8904150282e+04
3.367059e-02 1.8831567414e+04
3.382547e-02 1.8759073017e+04
3.398096e-02 1.8685974033e+04
3.413708e-02 1.8612884984e+04
3.429383e-02 1.8540137884e+04
3.445125e-02 1.8466755251e+04
3.460934e-02 1.8392618196e+04
3.476814e-02 1.8319648927e+04
3.492765e-02 1.8245494417e+04
3.508790e-02 1.8171941991e+04
3.524892e-02 1.8097817174e+04
3.541071e-02 1.8023723171e+04
3.557332e-02 1.7949659017e+04
3.573675e-02 1.7874698131e+04
3.590105e-02 1.7799959124e+04
3.606622e-02 1.7724963751e+04
3.623230e-02 1.7649831516e+04
3.639932e-02 1.7574396898e+04
3.656731e-02 1.7498957187e+04
3.673630e-02 1.7423183851e+04
3.690631e-02 1.7347179022e+04
3.707738e-02 1.7271157388e+04
3.724955e-02 1.7194420505e+04
3.742286e-02 1.7118233733e+04
3.759733e-02 1.7040851459e+04
3.777301e-02 1.6964157417e+04
3.794994e-02 1.6886254441e+04
3.812816e-02 1.6808705581e+04
3.830771e-02 1.6731337902e+04
3.848865e-02 1.6653081430e+04
3.867102e-02 1.6574427698e+04
3.885487e-02 1.6495914935e+04
3.904026e-02 1.6416696925e+04
3.922723e-02 1.6337433017e+04
3.941586e-02 1.6258277488e+04
3.960620e-02 1.6178456417e+04
3.979832e-02 1.6098230949e+04
3.999228e-02 1.6018291141e+04
4.018815e-02 1.5937030144e+04
4.038602e-02 1.5855678412e+04
4.058596e-02 1.5774890289e+04
4.078805e-02 1.5692928559e+04
4.099239e-02 1.5610334612e+04
4.119906e-02 1.5528256025e+04
4.140817e-02 1.5445844882e+04
4.161982e-02 1.5362479115e+04
4.183413e-02 1.5279009313e+04
4.205120e-02 1.5194830502e+04
4.227117e-02 1.5110596799e+04
4.249417e-02 1.5025984757e+04
4.272035e-02 1.4941011338e+04
4.294984e-02 1.4855714939e+04
4.318282e-02 1.4769512356e+04
4.341946e-02 1.4683562329e+04
4.365994e-02 1.4596800233e+04
4.390446e-02 1.4509738849e+04
4.415323e-02 1.4422174692e+04
4.440648e-02 1.4334391837e+04
4.466447e-02 1.4245707075e+04
4.492745e-02 1.4157251730e+04
4.519571e-02 1.4067838490e+04
4.546956e-02 1.3979729953e+04
4.574934e-02 1.3888444384e+04
4.603542e-02 1.3798143651e+04
4.632820e-02 1.3707385613e+04
4.662811e-02 1.3616371026e+04
4.693563e-02 1.3525149160e+04
4.725129e-02 1.3433419352e+04
4.757566e-02 1.3341301362e+04
4.790938e-02 1.3248555888e+04
4.825314e-02 1.3155714005e+04
4.860774e-02 1.3063077966e+04
4.897403e-02 1.2970235053e+04
4.935300e-02 1.2876694027e+04
4.974572e-02 1.2783333995e+04
5.015342e-02 1.2690033509e+04
5.057747e-02 1.2597063049e+04
5.101945e-02 1.2503740479e+04
5.148113e-02 1.2411729774e+04
5.196456e-02 1.2319417444e+04
5.247207e-02 1.2228185206e+04
5.300638e-02 1.2137123805e+04
5.357062e-02 1.2047300313e+04
5.416847e-02 1.1958426561e+04
5.480423e-02 1.1870542436e+04
5.548297e-02 1.1784060922e+04
5.621071e-02 1.1698955741e+04
5.699460e-02 1.1614309426e+04
5.784321e-02 1.1530370613e+04
5.876676e-02 1.1445807934e+04
5.977750e-02 1.1358330374e+04
6.089001e-02 1.1265328619e+04
6.212142e-02 1.1161595382e+04
6.349150e-02 1.1039120191e+04
6.502211e-02 1.0886587172e+04
6.673588e-02 1.0688910101e+04
6.865353e-02 1.0428362470e+04
7.078966e-02 1.0089644922e+04
7.314780e-02 9.6681575180e+03
7.571678e-02 9.1790943372e+03
7.847085e-02 8.6601354403e+03
8.137471e-02 8.1591933125e+03
8.439091e-02 7.7117891895e+03
8.748613e-02 7.3235068031e+03
9.063430e-02 6.9708429041e+03
9.381670e-02 6.6192651055e+03
9.702074e-02 6.2459090649e+03
1.002382e-01 5.8532355873e+03
1.034640e-01 5.4681996425e+03
1.066949e-01 5.1312469364e+03
1.099288e-01 4.8776009070e+03
1.131647e-01 4.7223687156e+03
1.164017e-01 4.6521613241e+03
1.196394e-01 4.6281775696e+03
1.228775e-01 4.5997216182e+03
1.261159e-01 4.5228776239e+03
1.293544e-01 4.3777150855e+03
1.325930e-01 4.1753768745e+03
1.358317e-01 3.9501643019e+03
1.390704e-01 3.7424672272e+03
1.423091e-01 3.5786297653e+03
1.455479e-01 3.4610721554e+03
1.487866e-01 3.3695189079e+03
1.520254e-01 3.2744756272e+03
1.552641e-01 3.1525894393e+03
1.585029e-01 2.9977238951e+03
1.617417e-01 2.8231050915e+03
1.649804e-01 2.6542713513e+03
1.682192e-01 2.5177845447e+03
1.714579e-01 2.4304037944e+03
1.746967e-01 2.3921638846e+03
1.779355e-01 2.3866734460e+03
1.811742e-01 2.3881575637e+03
1.844130e-01 2.3713791171e+03
1.876518e-01 2.3223187950e+03
1.908905e-01 2.2416631236e+03
1.941293e-01 2.1446291758e+03
1.973680e-01 2.0524652856e+03
2.006068e-01 1.9818218714e+03
2.038456e-01 1.9375586901e+03
2.070843e-01 1.9111971547e+03
2.103231e-01 1.8861918514e+03
2.135619e-01 1.8463668667e+03
2.168006e-01 1.7838878487e+03
2.200394e-01 1.7018979343e+03
2.232782e-01 1.6131555575e+03
2.265169e-01 1.5336107435e+03
2.297557e-01 1.4756787192e+03
2.329944e-01 1.4434657313e+03
2.362332e-01 1.4316318011e+03
2.394720e-01 1.4281793767e+03
2.427107e-01 1.4199657175e+03
2.459495e-01 1.3977404461e+03
2.491883e-01 1.3599338457e+03
2.524270e-01 1.3124642596e+03
2.556658e-01 1.2654296549e+03
2.589046e-01 1.2281473743e+03
2.621433e-01 1.2049388264e+03
2.653821e-01 1.1933775986e+03
2.686208e-01 1.1856772040e+03
2.718596e-01 1.1727049461e+03
2.750984e-01 1.1482239767e+03
2.783371e-01 1.1115102724e+03
2.815759e-01 1.0673480905e+03
2.848147e-01 1.0236151195e+03
2.880534e-01 9.8767090947e+02
2.912922e-01 9.6345278879e+02
2.945310e-01 9.5011876805e+02
2.977697e-01 9.4289732413e+02
3.010085e-01 9.3543933033e+02
3.042472e-01 9.2263369493e+02
3.074860e-01 9.0262732973e+02
3.107248e-01 8.7726964736e+02
3.139635e-01 8.5096605903e+02
3.172023e-01 8.2836761307e+02
3.204411e-01 8.1242961043e+02
3.236798e-01 8.0303273734e+02
3.269186e-01 7.9722326379e+02
3.301574e-01 7.9079354827e+02
3.333961e-01 7.8011593178e+02
3.366349e-01 7.6365358263e+02
3.398736e-01 7.4260167518e+02
3.431124e-01 7.2002392871e+02
3.463512e-01 6.9943160324e+02
3.495899e-01 6.8329170257e+02
3.528287e-01 6.7208060843e+02
3.560675e-01 6.6430423124e+02
3.593062e-01 6.5738031455e+02
3.625450e-01 6.4880540409e+02
3.657838e-01 6.3728369374e+02
3.690225e-01 6.2313442960e+02
3.722613e-01 6.0792966878e+02
3.755000e-01 5.9381045505e+02
3.787388e-01 5.8238111532e+02
3.819776e-01 5.7411061031e+02
3.852163e-01 5.6817355534e+02
3.884551e-01 5.6289567670e+02
3.916939e-01 5.5657469253e+02
3.949326e-01 5.4813524208e+02
3.981714e-01 5.3755701564e+02
4.014102e-01 5.2577689710e+02
4.046489e-01 5.1417162525e+02
4.078877e-01 5.0395600996e+02
4.111264e-01 4.9567321190e+02
4.143652e-01 4.8905642665e+02
4.176040e-01 4.8319019986e+02
4.208427e-01 4.7705164845e+02
4.240815e-01 4.6989979594e+02
4.273203e-01 4.6163199871e+02
4.305590e-01 4.5269596236e+02
4.337978e-01 4.4391675760e+02
4.370366e-01 4.3603998060e+02
4.402753e-01 4.2945664742e+02
4.435141e-01 4.2406215121e+02
4.467528e-01 4.1932201257e+02
4.499916e-01 4.1453937910e+02
4.532304e-01 4.0917424371e+02
4.564691e-01 4.0303887154e+02
4.597079e-01 3.9631683798e+02
4.629467e-01 3.8947107342e+02
4.661854e-01 3.8299776385e+02
4.694242e-01 3.7719621031e+02
4.726630e-01 3.7209647586e+02
4.759017e-01 3.6746741878e+02
4.791405e-01 3.6291292332e+02
4.823792e-01 3.5811803276e+02
4.856180e-01 3.5293560802e+02
4.888568e-01 3.4744099651e+02
4.920955e-01 3.4190856775e+02
4.953343e-01 3.3661622874e+02
4.985731e-01 3.3176870485e+02
5.018118e-01 3.2742011089e+02
5.050506e-01 3.2342795731e+02
5.082894e-01 3.1958020044e+02
5.115281e-01 3.1566097512e+02
5.147669e-01 3.1155432099e+02
5.180056e-01 3.0726080368e+02
5.212444e-01 3.0289349871e+02
5.244832e-01 2.9863375525e+02
5.277219e-01 2.9458763661e+02
5.309607e-01 2.9081058611e+02
5.341995e-01 2.8725345780e+02
5.374382e-01 2.8380621726e+02
5.406770e-01 2.8034856376e+02
5.439158e-01 2.7681086013e+02
5.471545e-01 2.7317847746e+02
5.503933e-01 2.6951489823e+02
5.536320e-01 2.6590591754e+02
5.568708e-01 2.6243662450e+02
5.601096e-01 2.5913787219e+02
5.633483e-01 2.5601492090e+02
5.665871e-01 2.5299856826e+02
5.698259e-01 2.5003349095e+02
5.730646e-01 2.4705487730e+02
5.763034e-01 2.4405537741e+02
5.795422e-01 2.4104205175e+02
5.827809e-01 2.3806342780e+02
5.860197e-01 2.3515568202e+02
5.892584e-01 2.3234832943e+02
5.924972e-01 2.2963892637e+02
5.957360e-01 2.2700812720e+02
5.989747e-01 2.2442434261e+02
6.022135e-01 2.2184584517e+02
6.054523e-01 2.1926065718e+02
6.086910e-01 2.1668267158e+02
6.119298e-01 2.1412184950e+02
6.151686e-01 2.1160724970e+02
6.184073e-01 2.0915758459e+02
6.216461e-01 2.0678324989e+02
6.248848e-01 2.0447122345e+02
6.281236e-01 2.0220591375e+02
6.313624e-01 1.9996672381e+02
6.346011e-01 1.9774357209e+02
6.378399e-01 1.9553339001e+02
6.410787e-01 1.9334441851e+02
6.443174e-01 1.9119093164e+02
6.475562e-01 1.8908359639e+02
6.507950e-01 1.8702517991e+02
6.540337e-01 1.8501288633e+02
6.572725e-01 1.8303586706e+02
6.605112e-01 1.8107918085e+02
6.637500e-01 1.7914868633e+02
6.669888e-01 1.7723014022e+02
6.702275e-01 1.7533066832e+02
6.734663e-01 1.7345777042e+02
6.767051e-01 1.7161632739e+02
6.799438e-01 1.6981087839e+02
6.831826e-01 1.6803886067e+02
6.864214e-01 1.6629633453e+02
6.896601e-01 1.6457643736e+02
6.928989e-01 1.6287738396e+02
6.961376e-01 1.6119685231e+02
7.463388e-01 1.3803880782e+02
8.118120e-01 1.1427609999e+02
9.044390e-01 8.9418865664e+01
1.048887e+00 6.3604523026e+01
