# Matter power spectrum P(k) at redshift z=0
# for k=1.05311e-05 to 1.04889 h/Mpc,
# number of wavenumbers equal to 547
# k (h/Mpc)  P (Mpc/h)^3:
1.053105e-05 5.1289879237e+01
1.402230e-04 6.1850618663e+02
2.699178e-04 1.1598341822e+03
3.996155e-04 1.6884454595e+03
5.293161e-04 2.2070582962e+03
6.590199e-04 2.7167252889e+03
7.887267e-04 3.2179667710e+03
9.184366e-04 3.7110871888e+03
1.048150e-03 4.1962813460e+03
1.177866e-03 4.6736747171e+03
1.307586e-03 5.1433575026e+03
1.437309e-03 5.6053578823e+03
1.567036e-03 6.0597375095e+03
1.696767e-03 6.5065735896e+03
1.826500e-03 6.9459358043e+03
1.956238e-03 7.3778648120e+03
2.085980e-03 7.8024335665e+03
2.215725e-03 8.2196962744e+03
2.345474e-03 8.6297318168e+03
2.475227e-03 9.0326212010e+03
2.604985e-03 9.4284279048e+03
2.734746e-03 9.8172441722e+03
2.864512e-03 1.0199150693e+04
2.994282e-03 1.0574240949e+04
3.124057e-03 1.0942606247e+04
3.253836e-03 1.1304330745e+04
3.383620e-03 1.1659520376e+04
3.513409e-03 1.2008247067e+04
3.643202e-03 1.2350622970e+04
3.773000e-03 1.2686729628e+04
3.902803e-03 1.3016650066e+04
4.032612e-03 1.3340483057e+04
4.162425e-03 1.3658319245e+04
4.292244e-03 1.3970226146e+04
4.422069e-03 1.4276297320e+04
4.551899e-03 1.4576622996e+04
4.681734e-03 1.4871268364e+04
4.811575e-03 1.5160312035e+04
4.941423e-03 1.5443848087e+04
5.071276e-03 1.5721939636e+04
5.201135e-03 1.5994684280e+04
5.331001e-03 1.6262172240e+04
5.460873e-03 1.6524447798e+04
5.590751e-03 1.6781588141e+04
5.720636e-03 1.7033671618e+04
5.850528e-03 1.7280767791e+04
5.980427e-03 1.7522917570e+04
6.110333e-03 1.7760213163e+04
6.240246e-03 1.7992729592e+04
6.370166e-03 1.8220533825e+04
6.500094e-03 1.8443661274e+04
6.630030e-03 1.8662213107e+04
6.759973e-03 1.8876233510e+04
6.889925e-03 1.9085778280e+04
7.019884e-03 1.9290919095e+04
7.149852e-03 1.9491707586e+04
7.279828e-03 1.9688211287e+04
7.409813e-03 1.9880464244e+04
7.539806e-03 2.0068595784e+04
7.669809e-03 2.0252570939e+04
7.799821e-03 2.0432517115e+04
7.929842e-03 2.0608481986e+04
8.059872e-03 2.0780503609e+04
8.189913e-03 2.0948582499e+04
8.319963e-03 2.1112862189e+04
8.450023e-03 2.1273361038e+04
8.580094e-03 2.1430115228e+04
8.710175e-03 2.1583160119e+04
8.840267e-03 2.1732594285e+04
8.970370e-03 2.1878483395e+04
9.100485e-03 2.2020748920e+04
9.230610e-03 2.2159582404e+04
9.360748e-03 2.2294956995e+04
9.490897e-03 2.2426940390e+04
9.621058e-03 2.2555552767e+04
9.751232e-03 2.2680860424e+04
9.881419e-03 2.2802900708e+04
1.001162e-02 2.2921745868e+04
1.014183e-02 2.3037370435e+04
1.027206e-02 2.3149843697e+04
1.040230e-02 2.3259262229e+04
1.053255e-02 2.3365595176e+04
1.066282e-02 2.3468912988e+04
1.079310e-02 2.3569290150e+04
1.092340e-02 2.3666710460e+04
1.105371e-02 2.3761232060e+04
1.118404e-02 2.3852835799e+04
1.131438e-02 2.3941658296e+04
1.144474e-02 2.4027627731e+04
1.157512e-02 2.4110935977e+04
1.170551e-02 2.4191517208e+04
1.183592e-02 2.4269276134e+04
1.196635e-02 2.4344506342e+04
1.209680e-02 2.4417072386e+04
1.222726e-02 2.4487025703e+04
1.235774e-02 2.4554498623e+04
1.248824e-02 2.4619314933e+04
1.261876e-02 2.4681748405e+04
1.274930e-02 2.4741671118e+04
1.287987e-02 2.4799327667e+04
1.301045e-02 2.4854451506e+04
1.314105e-02 2.4907200428e+04
1.327167e-02 2.4957625031e+04
1.340232e-02 2.5005755468e+04
1.353299e-02 2.5051562278e+04
1.366368e-02 2.5095260900e+04
1.379439e-02 2.5136664302e+04
1.392513e-02 2.5175831960e+04
1.405589e-02 2.5212936647e+04
1.418668e-02 2.5247872268e+04
1.431749e-02 2.5280675030e+04
1.444832e-02 2.5311496934e+04
1.457919e-02 2.5340087954e+04
1.471008e-02 2.5366861743e+04
1.484099e-02 2.5391463203e+04
1.497194e-02 2.5414057492e+04
1.510291e-02 2.5434918723e+04
1.523392e-02 2.5453697294e+04
1.536495e-02 2.5470607001e+04
1.549601e-02 2.5485751609e+04
1.562711e-02 2.5498957828e+04
1.575823e-02 2.5510440381e+04
1.588939e-02 2.5520157481e+04
1.602058e-02 2.5527996157e+04
1.615180e-02 2.5534262481e+04
1.628306e-02 2.5538637905e+04
1.641436e-02 2.5541389914e+04
1.654568e-02 2.5542504816e+04
1.667705e-02 2.5541917951e+04
1.680845e-02 2.5539722031e+04
1.693989e-02 2.5536060377e+04
1.707137e-02 2.5530643350e+04
1.720289e-02 2.5523709822e+04
1.733445e-02 2.5515443815e+04
1.746605e-02 2.5505441076e+04
1.759769e-02 2.5493970451e+04
1.772937e-02 2.5481143896e+04
1.786110e-02 2.5466747595e+04
1.799288e-02 2.5450985832e+04
1.812470e-02 2.5433889126e+04
1.825656e-02 2.5415365896e+04
1.838847e-02 2.5395277451e+04
1.852044e-02 2.5374224397e+04
1.865245e-02 2.5351659032e+04
1.878451e-02 2.5327737237e+04
1.891662e-02 2.5302971922e+04
1.904879e-02 2.5276633125e+04
1.918101e-02 2.5248887746e+04
1.931329e-02 2.5220248839e+04
1.944562e-02 2.5189992680e+04
1.957801e-02 2.5159172228e+04
1.971045e-02 2.5126799205e+04
1.984296e-02 2.5093358349e+04
1.997553e-02 2.5058572668e+04
2.010816e-02 2.5022888545e+04
2.024085e-02 2.4986375922e+04
2.037361e-02 2.4948270295e+04
2.050644e-02 2.4909398001e+04
2.063933e-02 2.4869681904e+04
2.077230e-02 2.4828649395e+04
2.090533e-02 2.4786772254e+04
2.103843e-02 2.4743930499e+04
2.117161e-02 2.4700189323e+04
2.130487e-02 2.4655366428e+04
2.143820e-02 2.4610027223e+04
2.157161e-02 2.4563172599e+04
2.170510e-02 2.4515423426e+04
2.183867e-02 2.4467242683e+04
2.197233e-02 2.4418049361e+04
2.210607e-02 2.4367955087e+04
2.223990e-02 2.4317790834e+04
2.237381e-02 2.4265713095e+04
2.250782e-02 2.4213028067e+04
2.264193e-02 2.4160167631e+04
2.277612e-02 2.4106224707e+04
2.291042e-02 2.4051287198e+04
2.304481e-02 2.3995721901e+04
2.317930e-02 2.3939768622e+04
2.331390e-02 2.3882930506e+04
2.344861e-02 2.3825619653e+04
2.358342e-02 2.3767312457e+04
2.371834e-02 2.3708700419e+04
2.385338e-02 2.3649217424e+04
2.398853e-02 2.3588750111e+04
2.412380e-02 2.3528257188e+04
2.425918e-02 2.3466942406e+04
2.439470e-02 2.3405326304e+04
2.453033e-02 2.3342938500e+04
2.466610e-02 2.3279682571e+04
2.480200e-02 2.3215923017e+04
2.493803e-02 2.3152215225e+04
2.507420e-02 2.3087999119e+04
2.521051e-02 2.3022567225e+04
2.534696e-02 2.2956899449e+04
2.548356e-02 2.2891136755e+04
2.562031e-02 2.2824498619e+04
2.575722e-02 2.2757788054e+04
2.589428e-02 2.2690399340e+04
2.603150e-02 2.2622652333e+04
2.616888e-02 2.2554342962e+04
2.630643e-02 2.2485868063e+04
2.644415e-02 2.2416975260e+04
2.658205e-02 2.2347676145e+04
2.672013e-02 2.2277757906e+04
2.685839e-02 2.2207762327e+04
2.699683e-02 2.2137315885e+04
2.713547e-02 2.2066579625e+04
2.727431e-02 2.1995480234e+04
2.741334e-02 2.1924053223e+04
2.755258e-02 2.1852612159e+04
2.769203e-02 2.1780150912e+04
2.783170e-02 2.1708462717e+04
2.797158e-02 2.1635645948e+04
2.811169e-02 2.1562741501e+04
2.825203e-02 2.1489755320e+04
2.839261e-02 2.1416488089e+04
2.853342e-02 2.1343266088e+04
2.867448e-02 2.1269245284e+04
2.881580e-02 2.1195412471e+04
2.895737e-02 2.1121226964e+04
2.909921e-02 2.1046591336e+04
2.924132e-02 2.0972171828e+04
2.938371e-02 2.0897259026e+04
2.952638e-02 2.0822472143e+04
2.966934e-02 2.0747616840e+04
2.981260e-02 2.0672274023e+04
2.995616e-02 2.0596995511e+04
3.010004e-02 2.0521863455e+04
3.024424e-02 2.0445581374e+04
3.038876e-02 2.0370114915e+04
3.053363e-02 2.0294096306e+04
3.067883e-02 2.0217959839e+04
3.082439e-02 2.0142127689e+04
3.097031e-02 2.0065899395e+04
3.111661e-02 1.9989012309e+04
3.126328e-02 1.9913240672e+04
3.141034e-02 1.9836708636e+04
3.155780e-02 1.9760320787e+04
3.170568e-02 1.9683394018e+04
3.185397e-02 1.9607190210e+04
3.200269e-02 1.9530060154e+04
3.215186e-02 1.9454154798e+04
3.230148e-02 1.9376980208e+04
3.245157e-02 1.9300454197e+04
3.260213e-02 1.9222929569e+04
3.275319e-02 1.9146621130e+04
3.290475e-02 1.9069238893e+04
3.305683e-02 1.8992287731e+04
3.320944e-02 1.8915646671e+04
3.336259e-02 1.8839133195e+04
3.351630e-02 1.8761777246e+04
3.367059e-02 1.8684771290e+04
3.382547e-02 1.8607993752e+04
3.398096e-02 1.8530764197e+04
3.413708e-02 1.8453698348e+04
3.429383e-02 1.8377130077e+04
3.445125e-02 1.8300095661e+04
3.460934e-02 1.8222483615e+04
3.476814e-02 1.8146204542e+04
3.492765e-02 1.8068933838e+04
3.508790e-02 1.7992448163e+04
3.524892e-02 1.7915590566e+04
3.541071e-02 1.7838964577e+04
3.557332e-02 1.7762575658e+04
3.573675e-02 1.7685512670e+04
3.590105e-02 1.7608887061e+04
3.606622e-02 1.7532230349e+04
3.623230e-02 1.7455666057e+04
3.639932e-02 1.7379035990e+04
3.656731e-02 1.7302639898e+04
3.673630e-02 1.7226158524e+04
3.690631e-02 1.7149698205e+04
3.707738e-02 1.7073476654e+04
3.724955e-02 1.6996809150e+04
3.742286e-02 1.6920951371e+04
3.759733e-02 1.6844181197e+04
3.777301e-02 1.6768364300e+04
3.794994e-02 1.6691629611e+04
3.812816e-02 1.6615526557e+04
3.830771e-02 1.6539888843e+04
3.848865e-02 1.6463663093e+04
3.867102e-02 1.6387339108e+04
3.885487e-02 1.6311453100e+04
3.904026e-02 1.6235172470e+04
3.922723e-02 1.6159152028e+04
3.941586e-02 1.6083546072e+04
3.960620e-02 1.6007591057e+04
3.979832e-02 1.5931547612e+04
3.999228e-02 1.5856101000e+04
4.018815e-02 1.5779662882e+04
4.038602e-02 1.5703452897e+04
4.058596e-02 1.5628121095e+04
4.078805e-02 1.5551947849e+04
4.099239e-02 1.5475469654e+04
4.119906e-02 1.5399822954e+04
4.140817e-02 1.5324165793e+04
4.161982e-02 1.5247878938e+04
4.183413e-02 1.5171804345e+04
4.205120e-02 1.5095339288e+04
4.227117e-02 1.5019130485e+04
4.249417e-02 1.4942853002e+04
4.272035e-02 1.4866519020e+04
4.294984e-02 1.4790160940e+04
4.318282e-02 1.4713189323e+04
4.341946e-02 1.4636748683e+04
4.365994e-02 1.4559767977e+04
4.390446e-02 1.4482746727e+04
4.415323e-02 1.4405469090e+04
4.440648e-02 1.4328203735e+04
4.466447e-02 1.4250251015e+04
4.492745e-02 1.4172723579e+04
4.519571e-02 1.4094408761e+04
4.546956e-02 1.4017545910e+04
4.574934e-02 1.3937612058e+04
4.603542e-02 1.3858747009e+04
4.632820e-02 1.3779466821e+04
4.662811e-02 1.3699930337e+04
4.693563e-02 1.3620139327e+04
4.725129e-02 1.3539734791e+04
4.757566e-02 1.3458770491e+04
4.790938e-02 1.3376930820e+04
4.825314e-02 1.3294669129e+04
4.860774e-02 1.3212197969e+04
4.897403e-02 1.3128993821e+04
4.935300e-02 1.3044437517e+04
4.974572e-02 1.2959275834e+04
5.015342e-02 1.2873223493e+04
5.057747e-02 1.2786372506e+04
5.101945e-02 1.2697822867e+04
5.148113e-02 1.2609028177e+04
5.196456e-02 1.2518078834e+04
5.247207e-02 1.2426066518e+04
5.300638e-02 1.2331720775e+04
5.357062e-02 1.2235740773e+04
5.416847e-02 1.2137409458e+04
5.480423e-02 1.2036299775e+04
5.548297e-02 1.1932341775e+04
5.621071e-02 1.1825029716e+04
5.699460e-02 1.1713008807e+04
5.784321e-02 1.1596223021e+04
5.876676e-02 1.1473301009e+04
5.977750e-02 1.1342404327e+04
6.089001e-02 1.1202177931e+04
6.212142e-02 1.1049978669e+04
6.349150e-02 1.0882256139e+04
6.502211e-02 1.0694631059e+04
6.673588e-02 1.0481538680e+04
6.865353e-02 1.0236052103e+04
7.078966e-02 9.9509757897e+03
7.314780e-02 9.6201725571e+03
7.571678e-02 9.2405897840e+03
7.847085e-02 8.8150368264e+03
8.137471e-02 8.3531010229e+03
8.439091e-02 7.8701840382e+03
8.748613e-02 7.3848862335e+03
9.063430e-02 6.9158205819e+03
9.381670e-02 6.4788584755e+03
9.702074e-02 6.0856537688e+03
1.002382e-01 5.7428831286e+03
1.034640e-01 5.4520038408e+03
1.066949e-01 5.2110905082e+03
1.099288e-01 5.0144466252e+03
1.131647e-01 4.8542024422e+03
1.164017e-01 4.7208942947e+03
1.196394e-01 4.6046705328e+03
1.228775e-01 4.4963350567e+03
1.261159e-01 4.3876004222e+03
1.293544e-01 4.2719072363e+03
1.325930e-01 4.1452733700e+03
1.358317e-01 4.0058838961e+03
1.390704e-01 3.8547597971e+03
1.423091e-01 3.6944292544e+03
1.455479e-01 3.5293293517e+03
1.487866e-01 3.3641233278e+03
1.520254e-01 3.2038184835e+03
1.552641e-01 3.0527590468e+03
1.585029e-01 2.9143117915e+03
1.617417e-01 2.7908308627e+03
1.649804e-01 2.6832624070e+03
1.682192e-01 2.5912916629e+03
1.714579e-01 2.5137584048e+03
1.746967e-01 2.4484769459e+03
1.779355e-01 2.3926175739e+03
1.811742e-01 2.3433967546e+03
1.844130e-01 2.2978189967e+03
1.876518e-01 2.2536554840e+03
1.908905e-01 2.2080033759e+03
1.941293e-01 2.1591069933e+03
1.973680e-01 2.1060738391e+03
2.006068e-01 2.0486169516e+03
2.038456e-01 1.9873771425e+03
2.070843e-01 1.9235184005e+03
2.103231e-01 1.8585596456e+03
2.135619e-01 1.7940195726e+03
2.168006e-01 1.7315512799e+03
2.200394e-01 1.6721936618e+03
2.232782e-01 1.6170332621e+03
2.265169e-01 1.5666658775e+03
2.297557e-01 1.5213445558e+03
2.329944e-01 1.4810534429e+03
2.362332e-01 1.4454382281e+03
2.394720e-01 1.4138329117e+03
2.427107e-01 1.3855338132e+03
2.459495e-01 1.3594824285e+03
2.491883e-01 1.3347757656e+03
2.524270e-01 1.3105560648e+03
2.556658e-01 1.2861120887e+03
2.589046e-01 1.2608964396e+03
2.621433e-01 1.2346486608e+03
2.653821e-01 1.2073356893e+03
2.686208e-01 1.1790232016e+03
2.718596e-01 1.1499621527e+03
2.750984e-01 1.1205665036e+03
2.783371e-01 1.0913037624e+03
2.815759e-01 1.0626644417e+03
2.848147e-01 1.0351246319e+03
2.880534e-01 1.0090094555e+03
2.912922e-01 9.8459014222e+02
2.945310e-01 9.6197732427e+02
2.977697e-01 9.4114364402e+02
3.010085e-01 9.2194017328e+02
3.042472e-01 9.0415502430e+02
3.074860e-01 8.8753693720e+02
3.107248e-01 8.7181360114e+02
3.139635e-01 8.5674256853e+02
3.172023e-01 8.4199534303e+02
3.204411e-01 8.2739765085e+02
3.236798e-01 8.1277032505e+02
3.269186e-01 7.9796049280e+02
3.301574e-01 7.8297333415e+02
3.333961e-01 7.6784572620e+02
3.366349e-01 7.5260513106e+02
3.398736e-01 7.3741265965e+02
3.431124e-01 7.2238739141e+02
3.463512e-01 7.0763735623e+02
3.495899e-01 6.9328048515e+02
3.528287e-01 6.7940790428e+02
3.560675e-01 6.6608123609e+02
3.593062e-01 6.5336388096e+02
3.625450e-01 6.4125318601e+02
3.657838e-01 6.2975520372e+02
3.690225e-01 6.1884912034e+02
3.722613e-01 6.0842342871e+02
3.755000e-01 5.9843280877e+02
3.787388e-01 5.8877274650e+02
3.819776e-01 5.7937134175e+02
3.852163e-01 5.7015820412e+02
3.884551e-01 5.6106465937e+02
3.916939e-01 5.5207347348e+02
3.949326e-01 5.4314222994e+02
3.981714e-01 5.3425062577e+02
4.014102e-01 5.2540295349e+02
4.046489e-01 5.1660188056e+02
4.078877e-01 5.0787599742e+02
4.111264e-01 4.9926072532e+02
4.143652e-01 4.9081831445e+02
4.176040e-01 4.8256645628e+02
4.208427e-01 4.7455243281e+02
4.240815e-01 4.6677780421e+02
4.273203e-01 4.5927770357e+02
4.305590e-01 4.5203272104e+02
4.337978e-01 4.4504922884e+02
4.370366e-01 4.3829922972e+02
4.402753e-01 4.3176979058e+02
4.435141e-01 4.2544252494e+02
4.467528e-01 4.1927849593e+02
4.499916e-01 4.1324238505e+02
4.532304e-01 4.0730634617e+02
4.564691e-01 4.0144931972e+02
4.597079e-01 3.9565086811e+02
4.629467e-01 3.8991189843e+02
4.661854e-01 3.8423581432e+02
4.694242e-01 3.7862356783e+02
4.726630e-01 3.7308913889e+02
4.759017e-01 3.6765202590e+02
4.791405e-01 3.6230443739e+02
4.823792e-01 3.5705986885e+02
4.856180e-01 3.5192439671e+02
4.888568e-01 3.4689993281e+02
4.920955e-01 3.4200952261e+02
4.953343e-01 3.3724591073e+02
4.985731e-01 3.3260054480e+02
5.018118e-01 3.2808019962e+02
5.050506e-01 3.2366042096e+02
5.082894e-01 3.1933422423e+02
5.115281e-01 3.1509776966e+02
5.147669e-01 3.1094576701e+02
5.180056e-01 3.0686802145e+02
5.212444e-01 3.0285686394e+02
5.244832e-01 2.9892524977e+02
5.277219e-01 2.9504811634e+02
5.309607e-01 2.9122437406e+02
5.341995e-01 2.8745487432e+02
5.374382e-01 2.8373497080e+02
5.406770e-01 2.8006885741e+02
5.439158e-01 2.7646413022e+02
5.471545e-01 2.7291808924e+02
5.503933e-01 2.6943941125e+02
5.536320e-01 2.6602362617e+02
5.568708e-01 2.6267501331e+02
5.601096e-01 2.5938148680e+02
5.633483e-01 2.5616270610e+02
5.665871e-01 2.5299980885e+02
5.698259e-01 2.4990708157e+02
5.730646e-01 2.4686845794e+02
5.763034e-01 2.4389549887e+02
5.795422e-01 2.4097068535e+02
5.827809e-01 2.3809990065e+02
5.860197e-01 2.3527010714e+02
5.892584e-01 2.3248411258e+02
5.924972e-01 2.2973585834e+02
5.957360e-01 2.2703184260e+02
5.989747e-01 2.2437399599e+02
6.022135e-01 2.2175248081e+02
6.054523e-01 2.1916818726e+02
6.086910e-01 2.1662971511e+02
6.119298e-01 2.1412491510e+02
6.151686e-01 2.1165749029e+02
6.184073e-01 2.0922818733e+02
6.216461e-01 2.0684193182e+02
6.248848e-01 2.0449571215e+02
6.281236e-01 2.0219025241e+02
6.313624e-01 1.9992340678e+02
6.346011e-01 1.9769360632e+02
6.378399e-01 1.9549889317e+02
6.410787e-01 1.9333708776e+02
6.443174e-01 1.9121019919e+02
6.475562e-01 1.8911787265e+02
6.507950e-01 1.8705810691e+02
6.540337e-01 1.8503134297e+02
6.572725e-01 1.8303398479e+02
6.605112e-01 1.8106091922e+02
6.637500e-01 1.7912355130e+02
6.669888e-01 1.7720965845e+02
6.702275e-01 1.7532251485e+02
6.734663e-01 1.7346342610e+02
6.767051e-01 1.7163174336e+02
6.799438e-01 1.6982802968e+02
6.831826e-01 1.6805073125e+02
6.864214e-01 1.6629869845e+02
6.896601e-01 1.6456967406e+02
6.928989e-01 1.6286576030e+02
6.961376e-01 1.6118561260e+02
7.463388e-01 1.3803887517e+02
8.118120e-01 1.1427595063e+02
9.044390e-01 8.9418891451e+01
1.048887e+00 6.3604535328e+01
